time (s),u1 = cos(2 pi t),u2 = cos(2 * 2 pi t),u3 = cos(100 * 2 pi t),u1 + u2 + u3,u1 + u2
0,1,1,1,3,2
0.001,0.999980261,0.999921044,0.809016994,2.808918299,1.999901305
0.002,0.999921044,0.999684189,0.309016994,2.308622228,1.999605233
0.003,0.999822352,0.999289473,-0.309016994,1.690094831,1.999111825
0.004,0.999684189,0.998736957,-0.809016994,1.189404152,1.998421146
0.005,0.99950656,0.998026728,-1,0.997533289,1.997533289
0.006,0.999289473,0.9971589,-0.809016994,1.187431379,1.996448373
0.007,0.999032935,0.996133609,-0.309016994,1.686149549,1.995166544
0.008,0.998736957,0.994951017,0.309016994,2.302704968,1.993687974
0.009,0.99840155,0.993611311,0.809016994,2.801029855,1.992012861
0.01,0.998026728,0.992114701,1,2.99014143,1.99014143
0.011,0.997612506,0.990461426,0.809016994,2.797090926,1.988073932
0.012,0.9971589,0.988651745,0.309016994,2.294827639,1.985810645
0.013,0.996665928,0.986685944,-0.309016994,1.674334878,1.983351872
0.014,0.996133609,0.984564335,-0.809016994,1.171680949,1.980697944
0.015,0.995561965,0.982287251,-1,0.977849215,1.977849215
0.016,0.994951017,0.979855052,-0.809016994,1.165789075,1.974806069
0.017,0.99430079,0.977268124,-0.309016994,1.66255192,1.971568914
0.018,0.993611311,0.974526873,0.309016994,2.277155178,1.968138183
0.019,0.992882605,0.971631733,0.809016994,2.773531332,1.964514337
0.02,0.992114701,0.968583161,1,2.960697862,1.960697862
0.021,0.991307631,0.965381639,0.809016994,2.765706264,1.95668927
0.022,0.990461426,0.962027672,0.309016994,2.261506092,1.952489097
0.023,0.989576119,0.958521789,-0.309016994,1.639080913,1.948097908
0.024,0.988651745,0.954864545,-0.809016994,1.134499295,1.943516289
0.025,0.987688341,0.951056516,-1,0.938744857,1.938744857
0.026,0.986685944,0.947098305,-0.809016994,1.124767255,1.933784249
0.027,0.985644595,0.942990536,-0.309016994,1.619618137,1.928635131
0.028,0.984564335,0.938733858,0.309016994,2.232315187,1.923298192
0.029,0.983445205,0.934328942,0.809016994,2.726791142,1.917774147
0.03,0.982287251,0.929776486,1,2.912063737,1.912063737
0.031,0.981090517,0.925077207,0.809016994,2.715184719,1.906167724
0.032,0.979855052,0.920231847,0.309016994,2.209103894,1.9000869
0.033,0.978580904,0.915241173,-0.309016994,1.584805083,1.893822077
0.034,0.977268124,0.910105971,-0.809016994,1.0783571,1.887374094
0.035,0.975916762,0.904827052,-1,0.880743814,1.880743814
0.036,0.974526873,0.899405252,-0.809016994,1.06491513,1.873932124
0.037,0.973098511,0.893841424,-0.309016994,1.557922941,1.866939935
0.038,0.971631733,0.888136449,0.309016994,2.168785176,1.859768182
0.039,0.970126596,0.882291226,0.809016994,2.661434817,1.852417823
0.04,0.968583161,0.87630668,1,2.844889841,1.844889841
0.041,0.967001488,0.870183755,0.809016994,2.646202237,1.837185242
0.042,0.965381639,0.863923417,0.309016994,2.13832205,1.829305056
0.043,0.963723678,0.857526656,-0.309016994,1.51223334,1.821250334
0.044,0.962027672,0.850994482,-0.809016994,1.004005159,1.813022153
0.045,0.960293686,0.844327926,-1,0.804621611,1.804621611
0.046,0.958521789,0.83752804,-0.809016994,0.987032835,1.796049829
0.047,0.956712052,0.830595899,-0.309016994,1.478290956,1.787307951
0.048,0.954864545,0.823532598,0.309016994,2.087414137,1.778397142
0.049,0.952979342,0.816339251,0.809016994,2.578335587,1.769318592
0.05,0.951056516,0.809016994,1,2.760073511,1.760073511
0.051,0.949096145,0.801566985,0.809016994,2.559680124,1.75066313
0.052,0.947098305,0.793990399,0.309016994,2.050105698,1.741088704
0.053,0.945063075,0.786288432,-0.309016994,1.422334513,1.731351507
0.054,0.942990536,0.778462302,-0.809016994,0.912435843,1.721452837
0.055,0.940880769,0.770513243,-1,0.711394012,1.711394012
0.056,0.938733858,0.762442511,-0.809016994,0.892159374,1.701176369
0.057,0.936549887,0.754251381,-0.309016994,1.381784273,1.690801267
0.058,0.934328942,0.745941145,0.309016994,1.989287082,1.680270088
0.059,0.932071112,0.737513117,0.809016994,2.478601224,1.66958423
0.06,0.929776486,0.728968627,1,2.658745113,1.658745113
0.061,0.927445153,0.720309025,0.809016994,2.456771173,1.647754178
0.062,0.925077207,0.711535677,0.309016994,1.945629878,1.636612884
0.063,0.92267274,0.70264997,-0.309016994,1.316305715,1.62532271
0.064,0.920231847,0.693653306,-0.809016994,0.804868159,1.613885153
0.065,0.917754626,0.684547106,-1,0.602301732,1.602301732
0.066,0.915241173,0.675332808,-0.809016994,0.781556986,1.590573981
0.067,0.912691587,0.666011867,-0.309016994,1.26968646,1.578703455
0.068,0.910105971,0.656585756,0.309016994,1.875708721,1.566691726
0.069,0.907484425,0.647055962,0.809016994,2.36355738,1.554540386
0.07,0.904827052,0.63742399,1,2.542251042,1.542251042
0.071,0.902133959,0.627691361,0.809016994,2.338842315,1.529825321
0.072,0.899405252,0.617859613,0.309016994,1.826281859,1.517264865
0.073,0.896641037,0.607930298,-0.309016994,1.19555434,1.504571334
0.074,0.893841424,0.597904983,-0.809016994,0.682729413,1.491746407
0.075,0.891006524,0.587785252,-1,0.478791776,1.478791776
0.076,0.888136449,0.577572703,-0.809016994,0.656692158,1.465709152
0.077,0.885231311,0.567268949,-0.309016994,1.143483266,1.45250026
0.078,0.882291226,0.556875616,0.309016994,1.748183837,1.439166843
0.079,0.87931631,0.546394347,0.809016994,2.234727651,1.425710657
0.08,0.87630668,0.535826795,1,2.412133475,1.412133475
0.081,0.873262455,0.52517463,0.809016994,2.207454079,1.398437085
0.082,0.870183755,0.514439534,0.309016994,1.693640283,1.384623288
0.083,0.867070701,0.503623202,-0.309016994,1.061676908,1.370693903
0.084,0.863923417,0.492727342,-0.809016994,0.547633764,1.356650759
0.085,0.860742027,0.481753674,-1,0.342495701,1.342495701
0.086,0.857526656,0.470703932,-0.809016994,0.519213594,1.328230588
0.087,0.854277432,0.459579861,-0.309016994,1.004840298,1.313857292
0.088,0.850994482,0.448383216,0.309016994,1.608394692,1.299377698
0.089,0.847677936,0.437115767,0.809016994,2.093810697,1.284793703
0.09,0.844327926,0.425779292,1,2.270107217,1.270107217
0.091,0.840944582,0.414375581,0.809016994,2.064337158,1.255320163
0.092,0.83752804,0.402906436,0.309016994,1.54945147,1.240434476
0.093,0.834078434,0.391373667,-0.309016994,0.916435106,1.2254521
0.094,0.830595899,0.379779096,-0.809016994,0.401358,1.210374995
0.095,0.827080574,0.368124553,-1,0.195205127,1.195205127
0.096,0.823532598,0.356411879,-0.809016994,0.370927482,1.179944476
0.097,0.819952109,0.344642923,-0.309016994,0.855578038,1.164595032
0.098,0.816339251,0.332819545,0.309016994,1.45817579,1.149158795
0.099,0.812694164,0.32094361,0.809016994,1.942654769,1.133637774
0.1,0.809016994,0.309016994,1,2.118033989,1.118033989
0.101,0.805307886,0.297041582,0.809016994,1.911366462,1.102349467
0.102,0.801566985,0.285019262,0.309016994,1.395603242,1.086586247
0.103,0.79779444,0.272951936,-0.309016994,0.761729381,1.070746375
0.104,0.793990399,0.260841506,-0.809016994,0.245814911,1.054831905
0.105,0.790155012,0.248689887,-1,0.0388449,1.0388449
0.106,0.786288432,0.236498997,-0.809016994,0.213770435,1.022787429
0.107,0.782390811,0.224270761,-0.309016994,0.697644577,1.006661572
0.108,0.778462302,0.21200711,0.309016994,1.299486406,0.990469411
0.109,0.77450306,0.199709981,0.809016994,1.783230035,0.974213041
0.11,0.770513243,0.187381315,1,1.957894557,0.957894557
0.111,0.766493007,0.175023059,0.809016994,1.75053306,0.941516066
0.112,0.762442511,0.162637165,0.309016994,1.234096671,0.925079676
0.113,0.758361915,0.150225589,-0.309016994,0.59957051,0.908587504
0.114,0.754251381,0.137790291,-0.809016994,0.083024677,0.892041671
0.115,0.75011107,0.125333234,-1,-0.124555697,0.875444303
0.116,0.745941145,0.112856385,-0.809016994,0.049780536,0.85879753
0.117,0.741741773,0.100361715,-0.309016994,0.533086493,0.842103488
0.118,0.737513117,0.087851197,0.309016994,1.134381308,0.825364314
0.119,0.733255346,0.075326806,0.809016994,1.617599146,0.808582152
0.12,0.728968627,0.06279052,1,1.791759147,0.791759147
0.121,0.72465313,0.050244318,0.809016994,1.583914443,0.774897448
0.122,0.720309025,0.037690183,0.309016994,1.067016202,0.757999208
0.123,0.715936483,0.025130095,-0.309016994,0.432049584,0.741066578
0.124,0.711535677,0.01256604,-0.809016994,-0.084915277,0.724101717
0.125,0.707106781,-1.04897E-15,-1,-0.292893219,0.707106781
0.126,0.70264997,-0.01256604,-0.809016994,-0.118933064,0.69008393
0.127,0.698165419,-0.025130095,-0.309016994,0.364018329,0.673035324
0.128,0.693653306,-0.037690183,0.309016994,0.964980118,0.655963123
0.129,0.689113808,-0.050244318,0.809016994,1.447886485,0.63886949
0.13,0.684547106,-0.06279052,1,1.621756586,0.621756586
0.131,0.679953379,-0.075326806,0.809016994,1.413643568,0.604626573
0.132,0.675332808,-0.087851197,0.309016994,0.896498606,0.587481612
0.133,0.670685577,-0.100361715,-0.309016994,0.261306867,0.570323862
0.134,0.666011867,-0.112856385,-0.809016994,-0.255861512,0.553155483
0.135,0.661311865,-0.125333234,-1,-0.464021368,0.535978632
0.136,0.656585756,-0.137790291,-0.809016994,-0.290221529,0.518795465
0.137,0.651833725,-0.150225589,-0.309016994,0.192591142,0.501608136
0.138,0.647055962,-0.162637165,0.309016994,0.793435791,0.484418796
0.139,0.642252653,-0.175023059,0.809016994,1.276246589,0.467229594
0.14,0.63742399,-0.187381315,1,1.450042675,0.450042675
0.141,0.632570162,-0.199709981,0.809016994,1.241877176,0.432860181
0.142,0.627691361,-0.21200711,0.309016994,0.724701246,0.415684251
0.143,0.62278778,-0.224270761,-0.309016994,0.089500025,0.39851702
0.144,0.617859613,-0.236498997,-0.809016994,-0.427656378,0.381360616
0.145,0.612907054,-0.248689887,-1,-0.635782834,0.364217166
0.146,0.607930298,-0.260841506,-0.809016994,-0.461928203,0.347088791
0.147,0.602929542,-0.272951936,-0.309016994,0.020960612,0.329977606
0.148,0.597904983,-0.285019262,0.309016994,0.621902715,0.312885721
0.149,0.59285682,-0.297041582,0.809016994,1.104832233,0.295815239
0.15,0.587785252,-0.309016994,1,1.278768258,0.278768258
0.151,0.58269048,-0.32094361,0.809016994,1.070763864,0.26174687
0.152,0.577572703,-0.332819545,0.309016994,0.553770153,0.244753159
0.153,0.572432126,-0.344642923,-0.309016994,-0.081227792,0.227789202
0.154,0.567268949,-0.356411879,-0.809016994,-0.598159924,0.21085707
0.155,0.562083378,-0.368124553,-1,-0.806041175,0.193958825
0.156,0.556875616,-0.379779096,-0.809016994,-0.631920473,0.177096521
0.157,0.551645871,-0.391373667,-0.309016994,-0.148744791,0.160272204
0.158,0.546394347,-0.402906436,0.309016994,0.452504905,0.143487911
0.159,0.541121252,-0.414375581,0.809016994,0.935762666,0.126745671
0.16,0.535826795,-0.425779292,1,1.110047503,0.110047503
0.161,0.530511184,-0.437115767,0.809016994,0.902412412,0.093395418
0.162,0.52517463,-0.448383216,0.309016994,0.385808408,0.076791414
0.163,0.519817343,-0.459579861,-0.309016994,-0.248779512,0.060237482
0.164,0.514439534,-0.470703932,-0.809016994,-0.765281393,0.043735602
0.165,0.509041416,-0.481753674,-1,-0.972712258,0.027287742
0.166,0.503623202,-0.492727342,-0.809016994,-0.798121134,0.01089586
0.167,0.498185105,-0.503623202,-0.309016994,-0.314455091,-0.005438096
0.168,0.492727342,-0.514439534,0.309016994,0.287304802,-0.021712192
0.169,0.487250126,-0.52517463,0.809016994,0.77109249,-0.037924504
0.17,0.481753674,-0.535826795,1,0.945926879,-0.054073121
0.171,0.476238204,-0.546394347,0.809016994,0.738860851,-0.070156143
0.172,0.470703932,-0.556875616,0.309016994,0.22284531,-0.086171684
0.173,0.465151078,-0.567268949,-0.309016994,-0.411134865,-0.102117871
0.174,0.459579861,-0.577572703,-0.809016994,-0.927009837,-0.117992843
0.175,0.4539905,-0.587785252,-1,-1.133794753,-0.133794753
0.176,0.448383216,-0.597904983,-0.809016994,-0.958538761,-0.149521767
0.177,0.442758231,-0.607930298,-0.309016994,-0.474189061,-0.165172067
0.178,0.437115767,-0.617859613,0.309016994,0.128273148,-0.180743846
0.179,0.431456046,-0.627691361,0.809016994,0.612781679,-0.196235316
0.18,0.425779292,-0.63742399,1,0.788355302,-0.211644698
0.181,0.420085728,-0.647055962,0.809016994,0.582046761,-0.226970233
0.182,0.414375581,-0.656585756,0.309016994,0.06680682,-0.242210175
0.183,0.408649075,-0.666011867,-0.309016994,-0.566379787,-0.257362793
0.184,0.402906436,-0.675332808,-0.809016994,-1.081443367,-0.272426372
0.185,0.397147891,-0.684547106,-1,-1.287399215,-0.287399215
0.186,0.391373667,-0.693653306,-0.809016994,-1.111296633,-0.302279639
0.187,0.385583992,-0.70264997,-0.309016994,-0.626082972,-0.317065978
0.188,0.379779096,-0.711535677,0.309016994,-0.022739587,-0.331756582
0.189,0.373959206,-0.720309025,0.809016994,0.462667175,-0.346349819
0.19,0.368124553,-0.728968627,1,0.639155925,-0.360844075
0.191,0.362275367,-0.737513117,0.809016994,0.433779244,-0.375237751
0.192,0.356411879,-0.745941145,0.309016994,-0.080512272,-0.389529267
0.193,0.35053432,-0.754251381,-0.309016994,-0.712734055,-0.403717061
0.194,0.344642923,-0.762442511,-0.809016994,-1.226816582,-0.417799588
0.195,0.33873792,-0.770513243,-1,-1.431775323,-0.431775323
0.196,0.332819545,-0.778462302,-0.809016994,-1.254659751,-0.445642757
0.197,0.32688803,-0.786288432,-0.309016994,-0.768417397,-0.459400402
0.198,0.32094361,-0.793990399,0.309016994,-0.164029794,-0.473046789
0.199,0.31498652,-0.801566985,0.809016994,0.322436529,-0.486580465
0.2,0.309016994,-0.809016994,1,0.5,-0.5
0.201,0.30303527,-0.816339251,0.809016994,0.295713013,-0.513303981
0.202,0.297041582,-0.823532598,0.309016994,-0.217474022,-0.526491016
0.203,0.291036167,-0.830595899,-0.309016994,-0.848576727,-0.539559732
0.204,0.285019262,-0.83752804,-0.809016994,-1.361525772,-0.552508778
0.205,0.278991106,-0.844327926,-1,-1.565336819,-0.565336819
0.206,0.272951936,-0.850994482,-0.809016994,-1.387059541,-0.578042546
0.207,0.266901989,-0.857526656,-0.309016994,-0.899641661,-0.590624667
0.208,0.260841506,-0.863923417,0.309016994,-0.294064917,-0.603081911
0.209,0.254770726,-0.870183755,0.809016994,0.193603965,-0.615413029
0.21,0.248689887,-0.87630668,1,0.372383207,-0.627616793
0.211,0.242599231,-0.882291226,0.809016994,0.169324999,-0.639691996
0.212,0.236498997,-0.888136449,0.309016994,-0.342620457,-0.651637452
0.213,0.230389427,-0.893841424,-0.309016994,-0.972468992,-0.663451997
0.214,0.224270761,-0.899405252,-0.809016994,-1.484151485,-0.675134491
0.215,0.218143241,-0.904827052,-1,-1.686683811,-0.686683811
0.216,0.21200711,-0.910105971,-0.809016994,-1.507115855,-0.698098861
0.217,0.205862609,-0.915241173,-0.309016994,-1.018395558,-0.709378564
0.218,0.199709981,-0.920231847,0.309016994,-0.411504872,-0.720521867
0.219,0.193549468,-0.925077207,0.809016994,0.077489256,-0.731527739
0.22,0.187381315,-0.929776486,1,0.257604829,-0.742395171
0.221,0.181205764,-0.934328942,0.809016994,0.055893816,-0.753123179
0.222,0.175023059,-0.938733858,0.309016994,-0.454693804,-0.763710799
0.223,0.168833445,-0.942990536,-0.309016994,-1.083174086,-0.774157091
0.224,0.162637165,-0.947098305,-0.809016994,-1.593478134,-0.78446114
0.225,0.156434465,-0.951056516,-1,-1.794622051,-0.794622051
0.226,0.150225589,-0.954864545,-0.809016994,-1.61365595,-0.804638956
0.227,0.144010783,-0.958521789,-0.309016994,-1.123528001,-0.814511006
0.228,0.137790291,-0.962027672,0.309016994,-0.515220387,-0.824237381
0.229,0.131564359,-0.965381639,0.809016994,-0.024800285,-0.83381728
0.23,0.125333234,-0.968583161,1,0.156750072,-0.843249928
0.231,0.11909716,-0.971631733,0.809016994,-0.043517578,-0.852534573
0.232,0.112856385,-0.974526873,0.309016994,-0.552653494,-0.861670488
0.233,0.106611154,-0.977268124,-0.309016994,-1.179673964,-0.870656969
0.234,0.100361715,-0.979855052,-0.809016994,-1.688510332,-0.879493338
0.235,0.094108313,-0.982287251,-1,-1.888178937,-0.888178937
0.236,0.087851197,-0.984564335,-0.809016994,-1.705730132,-0.896713138
0.237,0.081590612,-0.986685944,-0.309016994,-1.214112327,-0.905095333
0.238,0.075326806,-0.988651745,0.309016994,-0.604307945,-0.913324939
0.239,0.069060026,-0.990461426,0.809016994,-0.112384406,-0.9214014
0.24,0.06279052,-0.992114701,1,0.070675818,-0.929324182
0.241,0.056518534,-0.993611311,0.809016994,-0.128075782,-0.937092776
0.242,0.050244318,-0.994951017,0.309016994,-0.635689704,-0.944706699
0.243,0.043968118,-0.996133609,-0.309016994,-1.261182485,-0.952165491
0.244,0.037690183,-0.9971589,-0.809016994,-1.768485712,-0.959468718
0.245,0.031410759,-0.998026728,-1,-1.966615969,-0.966615969
0.246,0.025130095,-0.998736957,-0.809016994,-1.782623856,-0.973606861
0.247,0.01884844,-0.999289473,-0.309016994,-1.289458027,-0.980441033
0.248,0.01256604,-0.999684189,0.309016994,-0.678101155,-0.987118149
0.249,0.006283144,-0.999921044,0.809016994,-0.184620906,-0.9936379
0.25,-1.04897E-15,-1,1,0,-1
0.251,-0.006283144,-0.999921044,0.809016994,-0.197187194,-1.006204188
0.252,-0.01256604,-0.999684189,0.309016994,-0.703233235,-1.012250229
0.253,-0.01884844,-0.999289473,-0.309016994,-1.327154907,-1.018137912
0.254,-0.025130095,-0.998736957,-0.809016994,-1.832884046,-1.023867052
0.255,-0.031410759,-0.998026728,-1,-2.029437488,-1.029437488
0.256,-0.037690183,-0.9971589,-0.809016994,-1.843866077,-1.034849083
0.257,-0.043968118,-0.996133609,-0.309016994,-1.349118722,-1.040101727
0.258,-0.050244318,-0.994951017,0.309016994,-0.736178341,-1.045195335
0.259,-0.056518534,-0.993611311,0.809016994,-0.241112851,-1.050129845
0.26,-0.06279052,-0.992114701,1,-0.054905221,-1.054905221
0.261,-0.069060026,-0.990461426,0.809016994,-0.250504457,-1.059521451
0.262,-0.075326806,-0.988651745,0.309016994,-0.754961556,-1.06397855
0.263,-0.081590612,-0.986685944,-0.309016994,-1.37729355,-1.068276556
0.264,-0.087851197,-0.984564335,-0.809016994,-1.881432525,-1.072415531
0.265,-0.094108313,-0.982287251,-1,-2.076395564,-1.076395564
0.266,-0.100361715,-0.979855052,-0.809016994,-1.889233762,-1.080216767
0.267,-0.106611154,-0.977268124,-0.309016994,-1.392896272,-1.083879278
0.268,-0.112856385,-0.974526873,0.309016994,-0.778366263,-1.087383258
0.269,-0.11909716,-0.971631733,0.809016994,-0.281711899,-1.090728893
0.27,-0.125333234,-0.968583161,1,-0.093916395,-1.093916395
0.271,-0.131564359,-0.965381639,0.809016994,-0.287929004,-1.096945998
0.272,-0.137790291,-0.962027672,0.309016994,-0.790800968,-1.099817962
0.273,-0.144010783,-0.958521789,-0.309016994,-1.411549566,-1.102532572
0.274,-0.150225589,-0.954864545,-0.809016994,-1.914107128,-1.105090134
0.275,-0.156434465,-0.951056516,-1,-2.107490981,-1.107490981
0.276,-0.162637165,-0.947098305,-0.809016994,-1.918752465,-1.10973547
0.277,-0.168833445,-0.942990536,-0.309016994,-1.420840975,-1.111823981
0.278,-0.175023059,-0.938733858,0.309016994,-0.804739922,-1.113756917
0.279,-0.181205764,-0.934328942,0.809016994,-0.306517712,-1.115534706
0.28,-0.187381315,-0.929776486,1,-0.1171578,-1.1171578
0.281,-0.193549468,-0.925077207,0.809016994,-0.309609681,-1.118626675
0.282,-0.199709981,-0.920231847,0.309016994,-0.810924834,-1.119941828
0.283,-0.205862609,-0.915241173,-0.309016994,-1.430120776,-1.121103781
0.284,-0.21200711,-0.910105971,-0.809016994,-1.931130075,-1.122113081
0.285,-0.218143241,-0.904827052,-1,-2.122970294,-1.122970294
0.286,-0.224270761,-0.899405252,-0.809016994,-1.932693007,-1.123676013
0.287,-0.230389427,-0.893841424,-0.309016994,-1.433247845,-1.124230851
0.288,-0.236498997,-0.888136449,0.309016994,-0.815618451,-1.124635446
0.289,-0.242599231,-0.882291226,0.809016994,-0.315873463,-1.124890457
0.29,-0.248689887,-0.87630668,1,-0.124996567,-1.124996567
0.291,-0.254770726,-0.870183755,0.809016994,-0.315937486,-1.12495448
0.292,-0.260841506,-0.863923417,0.309016994,-0.815747929,-1.124764923
0.293,-0.266901989,-0.857526656,-0.309016994,-1.43344564,-1.124428646
0.294,-0.272951936,-0.850994482,-0.809016994,-1.932963412,-1.123946417
0.295,-0.278991106,-0.844327926,-1,-2.123319032,-1.123319032
0.296,-0.285019262,-0.83752804,-0.809016994,-1.931564297,-1.122547303
0.297,-0.291036167,-0.830595899,-0.309016994,-1.43064906,-1.121632066
0.298,-0.297041582,-0.823532598,0.309016994,-0.811557185,-1.120574179
0.299,-0.30303527,-0.816339251,0.809016994,-0.310357526,-1.11937452
0.3,-0.309016994,-0.809016994,1,-0.118033989,-1.118033989
0.301,-0.31498652,-0.801566985,0.809016994,-0.30753651,-1.116553505
0.302,-0.32094361,-0.793990399,0.309016994,-0.805917014,-1.114934008
0.303,-0.32688803,-0.786288432,-0.309016994,-1.422193456,-1.113176462
